# Frequency w         I(w)
1.000000       -0.00000000385614992862
1.000100       -0.00000000383378680195
1.000200       -0.00000000381155016990
1.000300       -0.00000000378943904227
1.000400       -0.00000000376745303747
1.000500       -0.00000000374559099624
1.000600       -0.00000000372385303451
1.000700       -0.00000000370223785776
1.000800       -0.00000000368074472215
1.000900       -0.00000000365937355522
1.001000       -0.00000000363812309626
1.001100       -0.00000000361699278498
1.001200       -0.00000000359598208038
1.001300       -0.00000000357509036903
1.001400       -0.00000000355431684426
1.001500       -0.00000000353366088781
1.001600       -0.00000000351312204081
1.001700       -0.00000000349269961735
1.001800       -0.00000000347239263207
1.001900       -0.00000000345220094489
1.002000       -0.00000000343212354146
1.002100       -0.00000000341216008366
1.002200       -0.00000000339230972136
1.002300       -0.00000000337257183629
1.002400       -0.00000000335294575223
1.002500       -0.00000000333343119383
1.002600       -0.00000000331402711295
1.002700       -0.00000000329473324390
1.002800       -0.00000000327554871243
1.002900       -0.00000000325647328668
1.003000       -0.00000000323750581704
1.003100       -0.00000000321864625522
1.003200       -0.00000000319989359653
1.003300       -0.00000000318124786027
1.003400       -0.00000000316270744282
1.003500       -0.00000000314427267262
1.003600       -0.00000000312594247737
1.003700       -0.00000000310771638852
1.003800       -0.00000000308959397619
1.003900       -0.00000000307157456897
1.004000       -0.00000000305365765968
1.004100       -0.00000000303584221465
1.004200       -0.00000000301812853335
1.004300       -0.00000000300051552416
1.004400       -0.00000000298300258328
1.004500       -0.00000000296558920355
1.004600       -0.00000000294827523521
1.004700       -0.00000000293105950936
1.004800       -0.00000000291394198735
1.004900       -0.00000000289692167414
1.005000       -0.00000000287999832824
1.005100       -0.00000000286317121060
1.005200       -0.00000000284644027292
1.005300       -0.00000000282980440908
1.005400       -0.00000000281326345002
1.005500       -0.00000000279681667604
1.005600       -0.00000000278046375383
1.005700       -0.00000000276420392989
1.005800       -0.00000000274803642655
1.005900       -0.00000000273196151429
1.006000       -0.00000000271597825122
1.006100       -0.00000000270008590797
1.006200       -0.00000000268428448454
1.006300       -0.00000000266857325640
1.006400       -0.00000000265295133960
1.006500       -0.00000000263741880661
1.006600       -0.00000000262197492322
1.006700       -0.00000000260661937546
1.006800       -0.00000000259135134220
1.006900       -0.00000000257617047083
1.007000       -0.00000000256107611408
1.007100       -0.00000000254606820435
1.007200       -0.00000000253114603157
1.007300       -0.00000000251630901613
1.007400       -0.00000000250155672813
1.007500       -0.00000000248688912409
1.007600       -0.00000000247230499163
1.007700       -0.00000000245780438387
1.007800       -0.00000000244338670670
1.007900       -0.00000000242905181037
1.008000       -0.00000000241479850183
1.008100       -0.00000000240062665547
1.008200       -0.00000000238653631477
1.008300       -0.00000000237252622870
1.008400       -0.00000000235859642623
1.008500       -0.00000000234474647265
1.008600       -0.00000000233097591391
1.008700       -0.00000000231728376947
1.008800       -0.00000000230367031949
1.008900       -0.00000000229013504713
1.009000       -0.00000000227667709260
1.009100       -0.00000000226329642209
1.009200       -0.00000000224999232555
1.009300       -0.00000000223676447936
1.009400       -0.00000000222361252609
1.009500       -0.00000000221053596337
1.009600       -0.00000000219753437582
1.009700       -0.00000000218460710651
1.009800       -0.00000000217175434866
1.009900       -0.00000000215897526180
1.010000       -0.00000000214626952232
1.010100       -0.00000000213363664717
1.010200       -0.00000000212107638036
1.010300       -0.00000000210858817124
1.010400       -0.00000000209617127112
1.010500       -0.00000000208382612439
1.010600       -0.00000000207155177947
1.010700       -0.00000000205934783548
1.010800       -0.00000000204721409918
1.010900       -0.00000000203515025663
1.011000       -0.00000000202315532244
1.011100       -0.00000000201122962024
1.011200       -0.00000000199937246413
1.011300       -0.00000000198758370922
1.011400       -0.00000000197586251020
1.011500       -0.00000000196420872701
1.011600       -0.00000000195262195388
1.011700       -0.00000000194110182374
1.011800       -0.00000000192964802261
1.011900       -0.00000000191826007229
1.012000       -0.00000000190693767332
1.012100       -0.00000000189568079670
1.012200       -0.00000000188448824454
1.012300       -0.00000000187336037428
1.012400       -0.00000000186229676085
1.012500       -0.00000000185129681979
1.012600       -0.00000000184036007775
1.012700       -0.00000000182948614346
1.012800       -0.00000000181867546614
1.012900       -0.00000000180792658223
1.013000       -0.00000000179723989746
1.013100       -0.00000000178661480323
1.013200       -0.00000000177605102422
1.013300       -0.00000000176554789866
1.013400       -0.00000000175510555216
1.013500       -0.00000000174472364177
1.013600       -0.00000000173440148641
1.013700       -0.00000000172413894602
1.013800       -0.00000000171393560035
1.013900       -0.00000000170379104851
1.014000       -0.00000000169370529048
1.014100       -0.00000000168367765487
1.014200       -0.00000000167370794847
1.014300       -0.00000000166379580900
1.014400       -0.00000000165394085487
1.014500       -0.00000000164414294601
1.014600       -0.00000000163440171050
1.014700       -0.00000000162471674741
1.014800       -0.00000000161508787320
1.014900       -0.00000000160551458069
1.015000       -0.00000000159599632890
1.015100       -0.00000000158653350907
1.015200       -0.00000000157712526625
1.015300       -0.00000000156777156662
1.015400       -0.00000000155847184989
1.015500       -0.00000000154922619816
1.015600       -0.00000000154003364539
1.015700       -0.00000000153089461663
1.015800       -0.00000000152180852742
1.015900       -0.00000000151277512660
1.016000       -0.00000000150379392147
1.016100       -0.00000000149486470917
1.016200       -0.00000000148598718055
1.016300       -0.00000000147716112310
1.016400       -0.00000000146838626631
1.016500       -0.00000000145966212716
1.016600       -0.00000000145098863802
1.016700       -0.00000000144236548493
1.016800       -0.00000000143379226699
1.016900       -0.00000000142526884410
1.017000       -0.00000000141679506653
1.017100       -0.00000000140837024840
1.017200       -0.00000000139999426410
1.017300       -0.00000000139166674655
1.017400       -0.00000000138338783099
1.017500       -0.00000000137515680254
1.017600       -0.00000000136697363221
1.017700       -0.00000000135883794809
1.017800       -0.00000000135074966323
1.017900       -0.00000000134270799995
1.018000       -0.00000000133471321426
1.018100       -0.00000000132676519024
1.018200       -0.00000000131886322749
1.018300       -0.00000000131100702171
1.018400       -0.00000000130319653909
1.018500       -0.00000000129543155744
1.018600       -0.00000000128771155509
1.018700       -0.00000000128003655620
1.018800       -0.00000000127240612120
1.018900       -0.00000000126482032738
1.019000       -0.00000000125727832462
1.019100       -0.00000000124978052833
1.019200       -0.00000000124232610769
1.019300       -0.00000000123491520761
1.019400       -0.00000000122754756727
1.019500       -0.00000000122022264083
1.019600       -0.00000000121294010469
1.019700       -0.00000000120570042736
1.019800       -0.00000000119850275873
1.019900       -0.00000000119134712295
1.020000       -0.00000000118423290657
1.020100       -0.00000000117716066991
1.020200       -0.00000000117012914261
1.020300       -0.00000000116313880286
1.020400       -0.00000000115618949126
1.020500       -0.00000000114928044464
1.020600       -0.00000000114241163884
1.020700       -0.00000000113558296760
1.020800       -0.00000000112879414594
1.020900       -0.00000000112204493716
1.021000       -0.00000000111533501766
1.021100       -0.00000000110866429564
1.021200       -0.00000000110203276628
1.021300       -0.00000000109543955530
1.021400       -0.00000000108888500083
1.021500       -0.00000000108236881787
1.021600       -0.00000000107589087118
1.021700       -0.00000000106945062460
1.021800       -0.00000000106304789942
1.021900       -0.00000000105668244929
1.022000       -0.00000000105035453987
1.022100       -0.00000000104406351907
1.022200       -0.00000000103780909227
1.022300       -0.00000000103159142367
1.022400       -0.00000000102541014619
1.022500       -0.00000000101926468020
1.022600       -0.00000000101315550871
1.022700       -0.00000000100708214387
1.022800       -0.00000000100104441180
1.022900       -0.00000000099504168939
1.023000       -0.00000000098907412638
1.023100       -0.00000000098314172760
1.023200       -0.00000000097724386512
1.023300       -0.00000000097138056792
1.023400       -0.00000000096555164278
1.023500       -0.00000000095975702209
1.023600       -0.00000000095399610689
1.023700       -0.00000000094826918701
1.023800       -0.00000000094257561518
1.023900       -0.00000000093691553631
1.024000       -0.00000000093128862194
1.024100       -0.00000000092569475616
1.024200       -0.00000000092013346559
1.024300       -0.00000000091460500141
1.024400       -0.00000000090910890474
1.024500       -0.00000000090364505967
1.024600       -0.00000000089821318602
1.024700       -0.00000000089281337075
1.024800       -0.00000000088744512601
1.024900       -0.00000000088210835036
1.025000       -0.00000000087680319836
1.025100       -0.00000000087152891166
1.025200       -0.00000000086628583322
1.025300       -0.00000000086107322884
1.025400       -0.00000000085589168297
1.025500       -0.00000000085074024889
1.025600       -0.00000000084561911980
1.025700       -0.00000000084052807352
1.025800       -0.00000000083546709073
1.025900       -0.00000000083043569322
1.026000       -0.00000000082543403075
1.026100       -0.00000000082046168306
1.026200       -0.00000000081551891101
1.026300       -0.00000000081060499971
1.026400       -0.00000000080571984773
1.026500       -0.00000000080086346472
1.026600       -0.00000000079603586035
1.026700       -0.00000000079123659989
1.026800       -0.00000000078646544667
1.026900       -0.00000000078172251660
1.027000       -0.00000000077700751988
1.027100       -0.00000000077232021016
1.027200       -0.00000000076766046186
1.027300       -0.00000000076302850199
1.027400       -0.00000000075842363500
1.027500       -0.00000000075384586089
1.027600       -0.00000000074929507822
1.027700       -0.00000000074477133047
1.027800       -0.00000000074027388827
1.027900       -0.00000000073580314287
1.028000       -0.00000000073135875615
1.028100       -0.00000000072694074744
1.028200       -0.00000000072254864336
1.028300       -0.00000000071818248256
1.028400       -0.00000000071384205734
1.028500       -0.00000000070952730008
1.028600       -0.00000000070523792095
1.028700       -0.00000000070097407937
1.028800       -0.00000000069673516188
1.028900       -0.00000000069252142449
1.029000       -0.00000000068833256290
1.029100       -0.00000000068416843220
1.029200       -0.00000000068002880536
1.029300       -0.00000000067591378865
1.029400       -0.00000000067182301497
1.029500       -0.00000000066775642636
1.029600       -0.00000000066371400832
1.029700       -0.00000000065969537445
1.029800       -0.00000000065570065032
1.029900       -0.00000000065172923698
1.030000       -0.00000000064778179135
1.030100       -0.00000000064385731840
1.030200       -0.00000000063995608861
1.030300       -0.00000000063607799573
1.030400       -0.00000000063222299145
1.030500       -0.00000000062839056860
1.030600       -0.00000000062458107977
1.030700       -0.00000000062079397917
1.030800       -0.00000000061702955659
1.030900       -0.00000000061328720826
1.031000       -0.00000000060956715155
1.031100       -0.00000000060586886960
1.031200       -0.00000000060219287444
1.031300       -0.00000000059853855744
1.031400       -0.00000000059490569159
1.031500       -0.00000000059129455221
1.031600       -0.00000000058770484948
1.031700       -0.00000000058413628394
1.031800       -0.00000000058058886523
1.031900       -0.00000000057706291700
1.032000       -0.00000000057355756012
1.032100       -0.00000000057007288155
1.032200       -0.00000000056660906484
1.032300       -0.00000000056316598439
1.032400       -0.00000000055974298813
1.032500       -0.00000000055634039002
1.032600       -0.00000000055295821905
1.032700       -0.00000000054959595837
1.032800       -0.00000000054625374323
1.032900       -0.00000000054293131281
1.033000       -0.00000000053962862845
1.033100       -0.00000000053634560804
1.033200       -0.00000000053308201491
1.033300       -0.00000000052983804708
1.033400       -0.00000000052661310079
1.033500       -0.00000000052340754312
1.033600       -0.00000000052022090072
1.033700       -0.00000000051705317359
1.033800       -0.00000000051390449696
1.033900       -0.00000000051077443612
1.034000       -0.00000000050766296209
1.034100       -0.00000000050456993962
1.034200       -0.00000000050149561989
1.034300       -0.00000000049843948122
1.034400       -0.00000000049540159124
1.034500       -0.00000000049238152489
1.034600       -0.00000000048937987145
1.034700       -0.00000000048639573734
1.034800       -0.00000000048342947515
1.034900       -0.00000000048048083373
1.035000       -0.00000000047754993382
1.035100       -0.00000000047463624409
1.035200       -0.00000000047174016546
1.035300       -0.00000000046886135980
1.035400       -0.00000000046599971604
1.035500       -0.00000000046315506509
1.035600       -0.00000000046032733935
1.035700       -0.00000000045751644220
1.035800       -0.00000000045472249923
1.035900       -0.00000000045194524961
1.036000       -0.00000000044918433108
1.036100       -0.00000000044644000928
1.036200       -0.00000000044371218763
1.036300       -0.00000000044100044105
1.036400       -0.00000000043830497724
1.036500       -0.00000000043562582037
1.036600       -0.00000000043296254053
1.036700       -0.00000000043031511841
1.036800       -0.00000000042768332215
1.036900       -0.00000000042506770724
1.037000       -0.00000000042246731727
1.037100       -0.00000000041988259181
1.037200       -0.00000000041731315893
1.037300       -0.00000000041475975765
1.037400       -0.00000000041222108381
1.037500       -0.00000000040969760110
1.037600       -0.00000000040718925158
1.037700       -0.00000000040469592897
1.037800       -0.00000000040221745455
1.037900       -0.00000000039975403602
1.038000       -0.00000000039730510342
1.038100       -0.00000000039487110595
1.038200       -0.00000000039245150263
1.038300       -0.00000000039004639973
1.038400       -0.00000000038765570064
1.038500       -0.00000000038527943433
1.038600       -0.00000000038291722406
1.038700       -0.00000000038056938862
1.038800       -0.00000000037823570099
1.038900       -0.00000000037591562500
1.039000       -0.00000000037360959538
1.039100       -0.00000000037131737062
1.039200       -0.00000000036903926952
1.039300       -0.00000000036677437432
1.039400       -0.00000000036452316323
1.039500       -0.00000000036228543819
1.039600       -0.00000000036006134896
1.039700       -0.00000000035785030624
1.039800       -0.00000000035565265297
1.039900       -0.00000000035346839882
1.040000       -0.00000000035129720567
1.040100       -0.00000000034913882717
1.040200       -0.00000000034699358696
1.040300       -0.00000000034486090058
1.040400       -0.00000000034274160365
1.040500       -0.00000000034063464318
1.040600       -0.00000000033854043457
1.040700       -0.00000000033645878462
1.040800       -0.00000000033438978027
1.040900       -0.00000000033233298679
1.041000       -0.00000000033028871332
1.041100       -0.00000000032825688742
1.041200       -0.00000000032623707917
1.041300       -0.00000000032422939486
1.041400       -0.00000000032223372821
1.041500       -0.00000000032025040286
1.041600       -0.00000000031827873773
1.041700       -0.00000000031631878596
1.041800       -0.00000000031437068280
1.041900       -0.00000000031243483882
1.042000       -0.00000000031051018652
1.042100       -0.00000000030859716065
1.042200       -0.00000000030669574186
1.042300       -0.00000000030480579493
1.042400       -0.00000000030292700104
1.042500       -0.00000000030105978527
1.042600       -0.00000000029920374187
1.042700       -0.00000000029735892397
1.042800       -0.00000000029552512388
1.042900       -0.00000000029370245751
1.043000       -0.00000000029189074133
1.043100       -0.00000000029009008642
1.043200       -0.00000000028830003874
1.043300       -0.00000000028652099921
1.043400       -0.00000000028475270698
1.043500       -0.00000000028299514274
1.043600       -0.00000000028124792008
1.043700       -0.00000000027951136260
1.043800       -0.00000000027778550413
1.043900       -0.00000000027606981818
1.044000       -0.00000000027436449794
1.044100       -0.00000000027266939368
1.044200       -0.00000000027098484835
1.044300       -0.00000000026931017123
1.044400       -0.00000000026764588398
1.044500       -0.00000000026599138281
1.044600       -0.00000000026434712178
1.044700       -0.00000000026271261786
1.044800       -0.00000000026108788070
1.044900       -0.00000000025947314700
1.045000       -0.00000000025786838776
1.045100       -0.00000000025627316827
1.045200       -0.00000000025468747404
1.045300       -0.00000000025311151759
1.045400       -0.00000000025154512987
1.045500       -0.00000000024998798243
1.045600       -0.00000000024844043269
1.045700       -0.00000000024690233092
1.045800       -0.00000000024537354188
1.045900       -0.00000000024385383371
1.046000       -0.00000000024234326437
1.046100       -0.00000000024084204158
1.046200       -0.00000000023934993829
1.046300       -0.00000000023786662124
1.046400       -0.00000000023639245268
1.046500       -0.00000000023492745193
1.046600       -0.00000000023347121327
1.046700       -0.00000000023202361109
1.046800       -0.00000000023058481929
1.046900       -0.00000000022915487168
1.047000       -0.00000000022773349777
1.047100       -0.00000000022632081831
1.047200       -0.00000000022491665941
1.047300       -0.00000000022352109836
1.047400       -0.00000000022213387915
1.047500       -0.00000000022075516119
1.047600       -0.00000000021938492515
1.047700       -0.00000000021802282325
1.047800       -0.00000000021666905836
1.047900       -0.00000000021532343245
1.048000       -0.00000000021398612423
1.048100       -0.00000000021265695016
1.048200       -0.00000000021133570736
1.048300       -0.00000000021002249726
1.048400       -0.00000000020871743097
1.048500       -0.00000000020742024765
1.048600       -0.00000000020613086036
1.048700       -0.00000000020484928358
1.048800       -0.00000000020357563324
1.048900       -0.00000000020230952293
1.049000       -0.00000000020105146947
1.049100       -0.00000000019980072902
1.049200       -0.00000000019855784738
1.049300       -0.00000000019732239951
1.049400       -0.00000000019609426463
1.049500       -0.00000000019487386298
1.049600       -0.00000000019366089993
1.049700       -0.00000000019245537062
1.049800       -0.00000000019125706738
1.049900       -0.00000000019006620755
1.050000       -0.00000000018888237574
1.050100       -0.00000000018770591489
1.050200       -0.00000000018653637579
1.050300       -0.00000000018537441053
1.050400       -0.00000000018421926558
1.050500       -0.00000000018307096027
1.050600       -0.00000000018192991965
1.050700       -0.00000000018079583460
1.050800       -0.00000000017966867612
1.050900       -0.00000000017854808679
1.051000       -0.00000000017743461242
1.051100       -0.00000000017632802599
