# Frequency w         I(w)
1.000000       -0.00000000019008251372
1.000100       -0.00000000018880470535
1.000200       -0.00000000018753522325
1.000300       -0.00000000018627416149
1.000400       -0.00000000018502141257
1.000500       -0.00000000018377657787
1.000600       -0.00000000018254040537
1.000700       -0.00000000018131226354
1.000800       -0.00000000018009203145
1.000900       -0.00000000017888013012
1.001000       -0.00000000017767607134
1.001100       -0.00000000017647984617
1.001200       -0.00000000017529143220
1.001300       -0.00000000017411104442
1.001400       -0.00000000017293830213
1.001500       -0.00000000017177329042
1.001600       -0.00000000017061599587
1.001700       -0.00000000016946641846
1.001800       -0.00000000016832417301
1.001900       -0.00000000016718970742
1.002000       -0.00000000016606264097
1.002100       -0.00000000016494317522
1.002200       -0.00000000016383095186
1.002300       -0.00000000016272615451
1.002400       -0.00000000016162831290
1.002500       -0.00000000016053806751
1.002600       -0.00000000015945478233
1.002700       -0.00000000015837882463
1.002800       -0.00000000015730981819
1.002900       -0.00000000015624817955
1.003000       -0.00000000015519316968
1.003100       -0.00000000015414533501
1.003200       -0.00000000015310431723
1.003300       -0.00000000015207069412
1.003400       -0.00000000015104318023
1.003500       -0.00000000015002283258
1.003600       -0.00000000014900913163
1.003700       -0.00000000014800200122
1.003800       -0.00000000014700171905
1.003900       -0.00000000014600803431
1.004000       -0.00000000014502107240
1.004100       -0.00000000014404013014
1.004200       -0.00000000014306613465
1.004300       -0.00000000014209851712
1.004400       -0.00000000014113729098
1.004500       -0.00000000014018220093
1.004600       -0.00000000013923388747
1.004700       -0.00000000013829146376
1.004800       -0.00000000013735550311
1.004900       -0.00000000013642564720
1.005000       -0.00000000013550199905
1.005100       -0.00000000013458420035
1.005200       -0.00000000013367284678
1.005300       -0.00000000013276747703
1.005400       -0.00000000013186807766
1.005500       -0.00000000013097457252
1.005600       -0.00000000013008732441
1.005700       -0.00000000012920563013
1.005800       -0.00000000012832950314
1.005900       -0.00000000012745954806
1.006000       -0.00000000012659537525
1.006100       -0.00000000012573674733
1.006200       -0.00000000012488404499
1.006300       -0.00000000012403702637
1.006400       -0.00000000012319526599
1.006500       -0.00000000012235945807
1.006600       -0.00000000012152907857
1.006700       -0.00000000012070440520
1.006800       -0.00000000011988509308
1.006900       -0.00000000011907122730
1.007000       -0.00000000011826248986
1.007100       -0.00000000011745938240
1.007200       -0.00000000011666175712
1.007300       -0.00000000011586900488
1.007400       -0.00000000011508169004
1.007500       -0.00000000011429995142
1.007600       -0.00000000011352299627
1.007700       -0.00000000011275144268
1.007800       -0.00000000011198484723
1.007900       -0.00000000011122384145
1.008000       -0.00000000011046746238
1.008100       -0.00000000010971594740
1.008200       -0.00000000010896995938
1.008300       -0.00000000010822841443
1.008400       -0.00000000010749207397
1.008500       -0.00000000010676059311
1.008600       -0.00000000010603412415
1.008700       -0.00000000010531198180
1.008800       -0.00000000010459502603
1.008900       -0.00000000010388311797
1.009000       -0.00000000010317560372
1.009100       -0.00000000010247299835
1.009200       -0.00000000010177510926
1.009300       -0.00000000010108163637
1.009400       -0.00000000010039294694
1.009500       -0.00000000009970879913
1.009600       -0.00000000009902916156
1.009700       -0.00000000009835401186
1.009800       -0.00000000009768355605
1.009900       -0.00000000009701756570
1.010000       -0.00000000009635596915
1.010100       -0.00000000009569879328
1.010200       -0.00000000009504619485
1.010300       -0.00000000009439775284
1.010400       -0.00000000009375326570
1.010500       -0.00000000009311356651
1.010600       -0.00000000009247805957
1.010700       -0.00000000009184669561
1.010800       -0.00000000009121966275
1.010900       -0.00000000009059687589
1.011000       -0.00000000008997802151
1.011100       -0.00000000008936335042
1.011200       -0.00000000008875295669
1.011300       -0.00000000008814680447
1.011400       -0.00000000008754452202
1.011500       -0.00000000008694614966
1.011600       -0.00000000008635192476
1.011700       -0.00000000008576155172
1.011800       -0.00000000008517523208
1.011900       -0.00000000008459270159
1.012000       -0.00000000008401401400
1.012100       -0.00000000008343960824
1.012200       -0.00000000008286858406
1.012300       -0.00000000008230161328
1.012400       -0.00000000008173859289
1.012500       -0.00000000008117938852
1.012600       -0.00000000008062361500
1.012700       -0.00000000008007146490
1.012800       -0.00000000007952354737
1.012900       -0.00000000007897868893
1.013000       -0.00000000007843786598
1.013100       -0.00000000007790059480
1.013200       -0.00000000007736704559
1.013300       -0.00000000007683661369
1.013400       -0.00000000007631000677
1.013500       -0.00000000007578714870
1.013600       -0.00000000007526768563
1.013700       -0.00000000007475181017
1.013800       -0.00000000007423928940
1.013900       -0.00000000007373006510
1.014000       -0.00000000007322450903
1.014100       -0.00000000007272219120
1.014200       -0.00000000007222325494
1.014300       -0.00000000007172773161
1.014400       -0.00000000007123541964
1.014500       -0.00000000007074647582
1.014600       -0.00000000007026096731
1.014700       -0.00000000006977860747
1.014800       -0.00000000006929956201
1.014900       -0.00000000006882371450
1.015000       -0.00000000006835068421
1.015100       -0.00000000006788132662
1.015200       -0.00000000006741495198
1.015300       -0.00000000006695178423
1.015400       -0.00000000006649162183
1.015500       -0.00000000006603466184
1.015600       -0.00000000006558059971
1.015700       -0.00000000006512969967
1.015800       -0.00000000006468191248
1.015900       -0.00000000006423727843
1.016000       -0.00000000006379536755
1.016100       -0.00000000006335658743
1.016200       -0.00000000006292070068
1.016300       -0.00000000006248771625
1.016400       -0.00000000006205767447
1.016500       -0.00000000006163043647
1.016600       -0.00000000006120611425
1.016700       -0.00000000006078481528
1.016800       -0.00000000006036619021
1.016900       -0.00000000005995046748
1.017000       -0.00000000005953772321
1.017100       -0.00000000005912773347
1.017200       -0.00000000005872028775
1.017300       -0.00000000005831549801
1.017400       -0.00000000005791364643
1.017500       -0.00000000005751441950
1.017600       -0.00000000005711797395
1.017700       -0.00000000005672422471
1.017800       -0.00000000005633314042
1.017900       -0.00000000005594429109
1.018000       -0.00000000005555842472
1.018100       -0.00000000005517541141
1.018200       -0.00000000005479492867
1.018300       -0.00000000005441663612
1.018400       -0.00000000005404104435
1.018500       -0.00000000005366815335
1.018600       -0.00000000005329764514
1.018700       -0.00000000005292956896
1.018800       -0.00000000005256405024
1.018900       -0.00000000005220123229
1.019000       -0.00000000005184054631
1.019100       -0.00000000005148255214
1.019200       -0.00000000005112676159
1.019300       -0.00000000005077345236
1.019400       -0.00000000005042267818
1.019500       -0.00000000005007418825
1.019600       -0.00000000004972777204
1.019700       -0.00000000004938394464
1.019800       -0.00000000004904253137
1.019900       -0.00000000004870336651
1.020000       -0.00000000004836627538
1.020100       -0.00000000004803195669
1.020200       -0.00000000004769953706
1.020300       -0.00000000004736938822
1.020400       -0.00000000004704177893
1.020500       -0.00000000004671616275
1.020600       -0.00000000004639275466
1.020700       -0.00000000004607146510
1.020800       -0.00000000004575253144
1.020900       -0.00000000004543563568
1.021000       -0.00000000004512092114
1.021100       -0.00000000004480821315
1.021200       -0.00000000004449786555
1.021300       -0.00000000004418937669
1.021400       -0.00000000004388310040
1.021500       -0.00000000004357896503
1.021600       -0.00000000004327699297
1.021700       -0.00000000004297714839
1.021800       -0.00000000004267900132
1.021900       -0.00000000004238280256
1.022000       -0.00000000004208897763
1.022100       -0.00000000004179706070
1.022200       -0.00000000004150694430
1.022300       -0.00000000004121888371
1.022400       -0.00000000004093286550
1.022500       -0.00000000004064848209
1.022600       -0.00000000004036637396
1.022700       -0.00000000004008622759
1.022800       -0.00000000003980798924
1.022900       -0.00000000003953148869
1.023000       -0.00000000003925683346
1.023100       -0.00000000003898424748
1.023200       -0.00000000003871327390
1.023300       -0.00000000003844427552
1.023400       -0.00000000003817705974
1.023500       -0.00000000003791188186
1.023600       -0.00000000003764811484
1.023700       -0.00000000003738649769
1.023800       -0.00000000003712652429
1.023900       -0.00000000003686824840
1.024000       -0.00000000003661197458
1.024100       -0.00000000003635729077
1.024200       -0.00000000003610408052
1.024300       -0.00000000003585293056
1.024400       -0.00000000003560338853
1.024500       -0.00000000003535557536
1.024600       -0.00000000003510937459
1.024700       -0.00000000003486499673
1.024800       -0.00000000003462214618
1.024900       -0.00000000003438099761
1.025000       -0.00000000003414164508
1.025100       -0.00000000003390378403
1.025200       -0.00000000003366767423
1.025300       -0.00000000003343282747
1.025400       -0.00000000003320012164
1.025500       -0.00000000003296857135
1.025600       -0.00000000003273871858
1.025700       -0.00000000003251039758
1.025800       -0.00000000003228376962
1.025900       -0.00000000003205852115
1.026000       -0.00000000003183493884
1.026100       -0.00000000003161279873
1.026200       -0.00000000003139242779
1.026300       -0.00000000003117354384
1.026400       -0.00000000003095581993
1.026500       -0.00000000003073962333
1.026600       -0.00000000003052510631
1.026700       -0.00000000003031217930
1.026800       -0.00000000003010031828
1.026900       -0.00000000002989009653
1.027000       -0.00000000002968138865
1.027100       -0.00000000002947390799
1.027200       -0.00000000002926784714
1.027300       -0.00000000002906363607
1.027400       -0.00000000002886057161
1.027500       -0.00000000002865879707
1.027600       -0.00000000002845832589
1.027700       -0.00000000002825960596
1.027800       -0.00000000002806182213
1.027900       -0.00000000002786554320
1.028000       -0.00000000002767059898
1.028100       -0.00000000002747722686
1.028200       -0.00000000002728501926
1.028300       -0.00000000002709409262
1.028400       -0.00000000002690435289
1.028500       -0.00000000002671605537
1.028600       -0.00000000002652907912
1.028700       -0.00000000002634341519
1.028800       -0.00000000002615881276
1.028900       -0.00000000002597562567
1.029000       -0.00000000002579367923
1.029100       -0.00000000002561298688
1.029200       -0.00000000002543350831
1.029300       -0.00000000002525534654
1.029400       -0.00000000002507831346
1.029500       -0.00000000002490248968
1.029600       -0.00000000002472810810
1.029700       -0.00000000002455466710
1.029800       -0.00000000002438263247
1.029900       -0.00000000002421136821
1.030000       -0.00000000002404193582
1.030100       -0.00000000002387316631
1.030200       -0.00000000002370557923
1.030300       -0.00000000002353917010
1.030400       -0.00000000002337410912
1.030500       -0.00000000002320993945
1.030600       -0.00000000002304705521
1.030700       -0.00000000002288525935
1.030800       -0.00000000002272469071
1.030900       -0.00000000002256508952
1.031000       -0.00000000002240661700
1.031100       -0.00000000002224906266
1.031200       -0.00000000002209288335
1.031300       -0.00000000002193778792
1.031400       -0.00000000002178346735
1.031500       -0.00000000002163033369
1.031600       -0.00000000002147840037
1.031700       -0.00000000002132726878
1.031800       -0.00000000002117715389
1.031900       -0.00000000002102856184
1.032000       -0.00000000002088068193
1.032100       -0.00000000002073375154
1.032200       -0.00000000002058773934
1.032300       -0.00000000002044324547
1.032400       -0.00000000002029921742
1.032500       -0.00000000002015627326
1.032600       -0.00000000002001454736
1.032700       -0.00000000001987360975
1.032800       -0.00000000001973364406
1.032900       -0.00000000001959472195
1.033000       -0.00000000001945673145
1.033100       -0.00000000001931958299
1.033200       -0.00000000001918345572
1.033300       -0.00000000001904850192
1.033400       -0.00000000001891406320
1.033500       -0.00000000001878087408
1.033600       -0.00000000001864841055
1.033700       -0.00000000001851690103
1.033800       -0.00000000001838641718
1.033900       -0.00000000001825675744
1.034000       -0.00000000001812798900
1.034100       -0.00000000001799999990
1.034200       -0.00000000001787319322
1.034300       -0.00000000001774717931
1.034400       -0.00000000001762190890
1.034500       -0.00000000001749743573
1.034600       -0.00000000001737418082
1.034700       -0.00000000001725143203
1.034800       -0.00000000001712962829
1.034900       -0.00000000001700857700
1.035000       -0.00000000001688850659
1.035100       -0.00000000001676913489
1.035200       -0.00000000001665073512
1.035300       -0.00000000001653308779
1.035400       -0.00000000001641637656
1.035500       -0.00000000001630035508
1.035600       -0.00000000001618517116
1.035700       -0.00000000001607070386
1.035800       -0.00000000001595716369
1.035900       -0.00000000001584442972
1.036000       -0.00000000001573218396
1.036100       -0.00000000001562092803
1.036200       -0.00000000001551055444
1.036300       -0.00000000001540068698
1.036400       -0.00000000001529170185
1.036500       -0.00000000001518370208
1.036600       -0.00000000001507632488
1.036700       -0.00000000001496951203
1.036800       -0.00000000001486335757
1.036900       -0.00000000001475837210
1.037000       -0.00000000001465380318
1.037100       -0.00000000001454996879
1.037200       -0.00000000001444669874
1.037300       -0.00000000001434478132
1.037400       -0.00000000001424302515
1.037500       -0.00000000001414206622
1.037600       -0.00000000001404185078
1.037700       -0.00000000001394222656
1.037800       -0.00000000001384337271
1.037900       -0.00000000001374533402
1.038000       -0.00000000001364774323
1.038100       -0.00000000001355106165
1.038200       -0.00000000001345490858
1.038300       -0.00000000001335948109
1.038400       -0.00000000001326459555
1.038500       -0.00000000001317053860
1.038600       -0.00000000001307704152
1.038700       -0.00000000001298426554
1.038800       -0.00000000001289222410
1.038900       -0.00000000001280069326
1.039000       -0.00000000001270972676
1.039100       -0.00000000001261943209
1.039200       -0.00000000001253001977
1.039300       -0.00000000001244091649
1.039400       -0.00000000001235245817
1.039500       -0.00000000001226468513
1.039600       -0.00000000001217750330
1.039700       -0.00000000001209090821
1.039800       -0.00000000001200482371
1.039900       -0.00000000001191973801
1.040000       -0.00000000001183501509
1.040100       -0.00000000001175081621
1.040200       -0.00000000001166721303
1.040300       -0.00000000001158403086
1.040400       -0.00000000001150189227
1.040500       -0.00000000001141994180
1.040600       -0.00000000001133872587
1.040700       -0.00000000001125800709
1.040800       -0.00000000001117803630
1.040900       -0.00000000001109833423
1.041000       -0.00000000001101927265
1.041100       -0.00000000001094098144
1.041200       -0.00000000001086315604
1.041300       -0.00000000001078572926
1.041400       -0.00000000001070869214
1.041500       -0.00000000001063268518
1.041600       -0.00000000001055673643
1.041700       -0.00000000001048143265
1.041800       -0.00000000001040661259
1.041900       -0.00000000001033280028
1.042000       -0.00000000001025907756
1.042100       -0.00000000001018588334
1.042200       -0.00000000001011322659
1.042300       -0.00000000001004109387
1.042400       -0.00000000000996932842
1.042500       -0.00000000000989836470
1.042600       -0.00000000000982770106
1.042700       -0.00000000000975757041
1.042800       -0.00000000000968791004
1.042900       -0.00000000000961874684
1.043000       -0.00000000000955005839
1.043100       -0.00000000000948190294
1.043200       -0.00000000000941417746
1.043300       -0.00000000000934699841
1.043400       -0.00000000000928017767
1.043500       -0.00000000000921402429
1.043600       -0.00000000000914813068
1.043700       -0.00000000000908265361
1.043800       -0.00000000000901802753
1.043900       -0.00000000000895345968
1.044000       -0.00000000000888934867
1.044100       -0.00000000000882579305
1.044200       -0.00000000000876275698
1.044300       -0.00000000000869999861
1.044400       -0.00000000000863803747
1.044500       -0.00000000000857604947
1.044600       -0.00000000000851483184
1.044700       -0.00000000000845380679
1.044800       -0.00000000000839308184
1.044900       -0.00000000000833301528
1.045000       -0.00000000000827362504
1.045100       -0.00000000000821434677
1.045200       -0.00000000000815553431
1.045300       -0.00000000000809708464
1.045400       -0.00000000000803923514
1.045500       -0.00000000000798145282
1.045600       -0.00000000000792433338
1.045700       -0.00000000000786767527
1.045800       -0.00000000000781137547
1.045900       -0.00000000000775533097
1.046000       -0.00000000000769964478
1.046100       -0.00000000000764450502
1.046200       -0.00000000000758971013
1.046300       -0.00000000000753519293
1.046400       -0.00000000000748117737
1.046500       -0.00000000000742756939
1.046600       -0.00000000000737443170
1.046700       -0.00000000000732148212
1.046800       -0.00000000000726888637
1.046900       -0.00000000000721672060
1.047000       -0.00000000000716496240
1.047100       -0.00000000000711352221
1.047200       -0.00000000000706247617
1.047300       -0.00000000000701178395
1.047400       -0.00000000000696136495
1.047500       -0.00000000000691140728
1.047600       -0.00000000000686184822
1.047700       -0.00000000000681245937
1.047800       -0.00000000000676355872
1.047900       -0.00000000000671487753
1.048000       -0.00000000000666664871
1.048100       -0.00000000000661881404
1.048200       -0.00000000000657123018
1.048300       -0.00000000000652388371
1.048400       -0.00000000000647711053
1.048500       -0.00000000000643053891
1.048600       -0.00000000000638425394
1.048700       -0.00000000000633824665
1.048800       -0.00000000000629272309
1.048900       -0.00000000000624728463
1.049000       -0.00000000000620259862
1.049100       -0.00000000000615784543
1.049200       -0.00000000000611351774
1.049300       -0.00000000000606955732
1.049400       -0.00000000000602568199
1.049500       -0.00000000000598223664
1.049600       -0.00000000000593917647
1.049700       -0.00000000000589652837
1.049800       -0.00000000000585408629
1.049900       -0.00000000000581195326
1.050000       -0.00000000000576999938
1.050100       -0.00000000000572849788
1.050200       -0.00000000000568698741
1.050300       -0.00000000000564627867
1.050400       -0.00000000000560555201
1.050500       -0.00000000000556500899
1.050600       -0.00000000000552485116
1.050700       -0.00000000000548504267
1.050800       -0.00000000000544557907
1.050900       -0.00000000000540606619
1.051000       -0.00000000000536711318
1.051100       -0.00000000000532846026
